,Time(ms),Main(mA),Main Voltage(V),
21478,118.5210268497467,326.46019226310165,4.25325,
21479,118.5212469100952,328.3007180407257,4.25425,
21480,118.5214228630066,303.63767262056354,4.255,
21481,118.52163004875185,314.55812556779955,4.25325,
21482,118.52183294296265,326.3374905445934,4.24875,
21483,118.52203297615053,337.6260486473542,4.254,
21484,118.52224111557008,295.9074643545426,4.25225,
21485,118.52243375778198,282.6556787556495,4.25325,
21486,118.52262091636658,283.88269594073216,4.25275,
21487,118.52282500267027,284.4962045332735,4.2505,
21488,118.52304100990295,282.41027531863296,4.24875,
21489,118.52324485778809,286.82753718493063,4.25225,
21490,118.52342104911804,282.04217016310815,4.25,
21491,118.5236270427704,284.1280993777487,4.248,
21492,118.52383279800416,310.99977573105974,4.24725,
21493,118.52403211593628,290.631290458687,4.245,
21494,118.5242440700531,282.1648718816164,4.2455,
21495,118.52441596984865,274.1892601785789,4.24875,
21496,118.52462601661682,275.170873926645,4.2455,
21497,118.52484583854675,276.76599626725255,4.2445,
21498,118.5250368118286,278.7292237633849,4.246,
21499,118.52523899078368,277.9930134523352,4.246,
21500,118.5254259109497,279.4654340744345,4.24325,
21501,118.52562689781188,277.3795048597939,4.24325,
21502,118.5258297920227,315.0489324418326,4.24325,
21503,118.52603697776794,287.07294062194717,4.24125,
21504,118.5262439250946,277.13410142277735,4.2425,
21505,118.5264298915863,322.90184242636184,4.24075,
21506,118.5266261100769,321.67482524127917,4.2405,
21507,118.52685499191284,316.8894582194566,4.24325,
21508,118.52703285217284,319.0980891526055,4.2385,
21509,118.52724480628969,341.42980192111054,4.23375,
21510,118.52742409706116,315.5397393158657,4.2405,
21511,118.52763605117798,284.37350281476523,4.233,
21512,118.52784204483032,340.0800830175196,4.239,
21513,118.52804398536682,302.77876059100566,4.237,
21514,118.52824091911316,281.42866157056676,4.23775,
21515,118.52842497825624,281.42866157056676,4.236,
21516,118.5286259651184,280.9378546965337,4.237,
21517,118.52883791923524,285.4778182813397,4.23475,
21518,118.52928185462952,282.1648718816164,4.23525,
21519,118.52950978279114,280.32434610399235,4.237,
21520,118.52950978279114,282.41027531863296,4.234,
21521,118.5296540260315,289.52697499211257,4.2295,
21522,118.52984499931335,335.0493125586805,4.23425,
21523,118.53004384040833,310.8770740125514,4.23425,
21524,118.53024172782898,299.58851590979066,4.23025,
21525,118.53042697906494,301.4290416874147,4.23275,
21526,118.53062677383424,289.64967671062084,4.22975,
21527,118.530837059021,281.1832581335502,4.2305,
21528,118.53104591369627,335.5401194327136,4.2305,
21529,118.53124594688416,279.4654340744345,4.2307500000000005,
21530,118.53143191337584,274.0665584600706,4.2345,
21531,118.53163385391235,275.66168080067814,4.226,
21532,118.53184485435486,312.2267929161424,4.23275,
21533,118.5320439338684,273.20764643051274,4.23375,
21534,118.53224396705627,274.4346636155954,4.2285,
21535,118.53242182731628,272.47143611946314,4.23,
21536,118.53262901306152,274.9254704896285,4.229,
21537,118.53284692764282,273.4530498675293,4.228,
21538,118.53303790092468,274.4346636155954,4.22875,
21539,118.53325176239014,274.8027687711202,4.2242500000000005,
21540,118.53342795372008,273.94385674156234,4.22675,
21541,118.53363299369812,281.9194684445999,4.2245,
21542,118.53384494781494,306.582513864762,4.225,
21543,118.53404593467712,347.81029128354055,4.229,
21544,118.5342469215393,314.55812556779955,4.2242500000000005,
21545,118.53443312644958,277.0113997042691,4.229,
21546,118.53463983535768,271.6125240899052,4.223,
21547,118.53482508659364,274.1892601785789,4.2225,
21548,118.53503704071044,276.1524876747112,4.224,
21549,118.53524589538574,275.7843825191864,4.2235000000000005,
21550,118.5354299545288,275.9070842376947,4.22575,
21551,118.53562808036804,292.10371108078624,4.2235000000000005,
21552,118.53583908081056,271.6125240899052,4.222,
21553,118.53603100776672,271.2444189343804,4.2215,
21554,118.53623986244202,282.41027531863296,4.2235000000000005,
21555,118.5364408493042,260.569369424161,4.224,
21556,118.53664183616638,262.77800035730985,4.222,
21557,118.53685307502748,261.42828145371885,4.22125,
21558,118.5370388031006,262.9007020758181,4.22025,
21559,118.53724193572998,291.3675007697366,4.223,
21560,118.53743290901184,263.3915089498512,4.2242500000000005,
21561,118.5376329421997,249.15810960289193,4.22325,
21562,118.53784704208374,246.94947866974303,4.2215,
21563,118.53804278373718,270.8763137788556,4.22075,
21564,118.53824377059937,289.52697499211257,4.22,
21565,118.5384440422058,285.7232217183562,4.21925,
21566,118.53864693641664,291.12209733272005,4.219,
21567,118.53883385658264,285.8459234368645,4.218,
21568,118.53903889656068,268.66768284570674,4.2225,
21569,118.5392439365387,261.06017629819405,4.2185,
21570,118.53943610191344,261.06017629819405,4.21875,
21571,118.53962707519533,274.4346636155954,4.2162500000000005,
21572,118.53982996940611,274.9254704896285,4.21925,
21573,118.54003381729126,259.4650539575866,4.2162500000000005,
21574,118.5402410030365,260.0785625501279,4.2165,
21575,118.54043292999268,260.0785625501279,4.21775,
21576,118.5406289100647,261.5509831722271,4.2155000000000005,
21577,118.54083895683289,264.61852613493386,4.21475,
21578,118.54102611541748,286.82753718493063,4.2162500000000005,
21579,118.54124402999878,284.8643096887983,4.216,
21580,118.54142904281616,264.7412278534421,4.2155000000000005,
21581,118.54162693023682,281.1832581335502,4.2170000000000005,
21582,118.5419111251831,261.42828145371885,4.214,
21583,118.54205799102785,259.7104573946031,4.2185,
21584,118.54224276542664,258.23803677250385,4.2135,
21585,118.54244303703308,260.9374745796858,4.21375,
21586,118.54262685775755,262.9007020758181,4.2175,
21587,118.54285502433775,275.2935756451533,4.21525,
21588,118.54304599761964,264.61852613493386,4.21675,
21589,118.54324102401732,258.8515453650452,4.2162500000000005,
21590,118.54343676567078,260.569369424161,4.2125,
21591,118.54364395141602,282.5329770371412,4.214,
21592,118.54385375976562,262.9007020758181,4.2115,
21593,118.54405307769775,260.69207114266925,4.21175,
21594,118.54423880577087,259.21965052057,4.2135,
21595,118.54443383216858,261.5509831722271,4.2135,
21596,118.54463171958923,261.1828780167023,4.21325,
21597,118.54485297203064,260.32396598714445,4.21325,
21598,118.54504299163818,260.4466677056527,4.21375,
21599,118.54524278640748,262.53259692029326,4.212,
21600,118.54544115066528,263.6369123868677,4.2075000000000005,
21601,118.5456440448761,291.981009362278,4.21275,
21602,118.54585385322572,265.35473644598346,4.211,
21603,118.54603385925292,261.3055797352106,4.21075,
21604,118.54623889923096,263.51421066835945,4.2082500000000005,
21605,118.5464379787445,290.9993956142118,4.20625,
21606,118.54665398597716,298.9750073172493,4.20725,
21607,118.54686379432678,284.8643096887983,4.20875,
21608,118.54703378677368,285.96862515537276,4.20875,
21609,118.54724192619324,276.2751893932195,4.211,
21610,118.54743671417236,264.1277192609008,4.2055,
21611,118.54764795303343,283.14648562968256,4.211,
21612,118.5478527545929,262.16449176476846,4.2075000000000005,
21613,118.54803681373596,258.3607384910121,4.206,
21614,118.54824090003969,260.32396598714445,4.20875,
21615,118.54844689369202,263.3915089498512,4.21225,
21616,118.54865789413452,259.21965052057,4.207,
21617,118.54885196685792,271.2444189343804,4.207,
21618,118.54904079437256,262.409895201785,4.2075000000000005,
21619,118.54925084114076,260.9374745796858,4.205,
21620,118.54943895339966,264.3731226979173,4.2075000000000005,
21621,118.54962992668152,271.3671206528887,4.20425,
21622,118.54985880851746,260.569369424161,4.2065,
21623,118.55005288124084,260.4466677056527,4.20525,
21624,118.55024886131288,262.2871934832767,4.20675,
21625,118.55044674873352,261.3055797352106,4.20975,
21626,118.55066871643066,262.77800035730985,4.208,
21627,118.55084490776062,270.01740174929773,4.20475,
21628,118.55104112625122,287.19564234045544,4.20625,
21629,118.55124402046204,268.54498112719847,4.20725,
21630,118.5514440536499,265.35473644598346,4.20075,
21631,118.55164504051208,279.710837511451,4.20525,
21632,118.551855802536,260.569369424161,4.2055,
21633,118.5520510673523,263.2688072313429,4.20375,
21634,118.5522518157959,259.0969488020617,4.2090000000000005,
21635,118.55243492126463,258.23803677250385,4.20425,
21636,118.55264377593994,264.3731226979173,4.20475,
21637,118.55285501480104,280.32434610399235,4.20375,
21638,118.55304098129272,264.98663129045866,4.20575,
21639,118.55325293540956,263.14610551283465,4.206,
21640,118.55344486236572,268.4222794086902,4.2002500000000005,
21641,118.5536458492279,285.23241484432316,4.20475,
21642,118.55385494232178,273.08494471200447,4.20175,
21643,118.55405282974245,290.38588702167044,4.2015,
21644,118.55424189567566,271.12171721587214,4.20175,
21645,118.554447889328,253.82077490620617,4.20325,
21646,118.55487394332886,289.8950801476374,4.20125,
21647,118.555095911026,326.46019226310165,4.1985,
21648,118.555095911026,323.88345617442803,4.2005,
21649,118.55526089668274,302.04255027995606,4.202,
21650,118.55543684959412,306.3371104277455,4.2015,
21651,118.55564498901369,301.30633996890646,4.1995000000000005,
21652,118.55584478378296,277.3795048597939,4.20425,
21653,118.55607080459596,273.20764643051274,4.20375,
21654,118.55625796318054,281.9194684445999,4.20075,
21655,118.55644702911376,286.33673031089756,4.20225,
21656,118.55666208267212,283.88269594073216,4.20125,
21657,118.55685591697691,280.5697495410089,4.19875,
21658,118.5570628643036,284.98701140730657,4.2005,
21659,118.55723810195924,282.41027531863296,4.19975,
21660,118.55744481086732,292.7172196733276,4.19625,
21661,118.55764579772948,287.93185265150504,4.2,
21662,118.55786395072936,288.91346639957123,4.2005,
21663,118.55805706977844,289.64967671062084,4.20125,
21664,118.55824899673462,284.61890625178177,4.20225,
21665,118.55844688415527,283.14648562968256,4.202,
21666,118.5586597919464,280.8151529780254,4.198,
21667,118.55887007713318,290.38588702167044,4.19825,
21668,118.5590798854828,293.94423685841025,4.2015,
21669,118.55924201011658,285.7232217183562,4.1965,
21670,118.5594367980957,296.76637638410045,4.1995000000000005,
21671,118.55963897705078,298.48420044321625,4.2002500000000005,
21672,118.55984902381896,281.06055641504196,4.199,
21673,118.56005096435548,282.2875736001247,4.2005,
21674,118.56025290489195,285.96862515537276,4.199,
21675,118.56044602394104,282.5329770371412,4.19525,
21676,118.56066370010376,294.31234201393505,4.195,
21677,118.56087183952332,298.9750073172493,4.1975,
21678,118.56103897094728,331.4909627219407,4.1945,
21679,118.56125283241272,322.90184242636184,4.19675,
21680,118.5614368915558,312.47219635315895,4.1985,
21681,118.5616557598114,320.32510633768817,4.1955,
21682,118.56186199188232,313.3311083827168,4.19675,
21683,118.56206011772156,434.92851142441185,4.1690000000000005,
21684,118.56226205825806,737.8790544213292,4.18275,
21685,118.56247878074646,545.4827598003627,4.19175,
21686,118.56266593933104,367.1971628078471,4.1935,
21687,118.5628490447998,332.3498747514986,4.19425,
21688,118.56305289268494,317.0121599379649,4.19525,
21689,118.5632529258728,321.79752695978743,4.19575,
21690,118.56344389915466,336.7671366177963,4.19525,
21691,118.56366801261902,318.97538743409723,4.1945,
21692,118.56387400627136,307.56412761282814,4.19775,
21693,118.5640640258789,292.47181623631104,4.197,
21694,118.56427383422852,288.29995780702984,4.198,
21695,118.56445598602296,291.981009362278,4.1975,
21696,118.5646448135376,302.77876059100566,4.19675,
21697,118.56486082077026,290.9993956142118,4.1995000000000005,
21698,118.5650577545166,290.8766938957035,4.19425,
21699,118.5652539730072,295.5393591990178,4.19475,
21700,118.56544375419617,320.32510633768817,4.19725,
21701,118.56564998626708,296.6436746655922,4.195,
21702,118.56586289405824,291.73560592526144,4.1955,
21703,118.5660629272461,297.7479901321666,4.197,
21704,118.56627988815308,290.2631853031622,4.1955,
21705,118.56645107269289,295.9074643545426,4.194,
21706,118.56665182113647,286.9502389034389,4.196,
21707,118.56685996055604,311.36788088658454,4.19525,
21708,118.56705784797668,330.7547524108911,4.19525,
21709,118.56726098060608,317.502966811998,4.196,
21710,118.56756687164308,340.57088989155267,4.19325,
21711,118.56768488883972,311.36788088658454,4.19575,
21712,118.56787109375,307.4414258943199,4.19,
21713,118.5680799484253,312.963003227192,4.19375,
21714,118.56825184822084,308.6684430794026,4.19375,
21715,118.56847500801086,307.3187241758116,4.1930000000000005,
21716,118.56866097450256,305.35549667967933,4.1945,
21717,118.56885981559752,306.09170699072894,4.1945,
21718,118.56907176971436,316.6440547824401,4.1905,
21719,118.5692789554596,312.2267929161424,4.1925,
21720,118.56947898864746,340.8162933285692,4.18775,
21721,118.56965589523315,367.1971628078471,4.194,
21722,118.56986498832704,326.09208710757684,4.19625,
21723,118.5700659751892,314.8035290048161,4.1930000000000005,
21724,118.57024788856506,312.84030150868375,4.1935,
21725,118.57045102119446,310.2635654200101,4.195,
21726,118.57065391540527,334.0676988106144,4.1922500000000005,
21727,118.57086992263794,332.47257647000686,4.1905,
21728,118.5710620880127,347.3194844095075,4.1930000000000005,
21729,118.57125997543336,320.8159132117213,4.18725,
21730,118.57146978378296,397.1363821238649,4.191,
21731,118.57165789604188,339.834679580503,4.1915,
21732,118.57187581062315,324.0061578929363,4.1935,
21733,118.5720558166504,314.8035290048161,4.1945,
21734,118.5722517967224,311.73598604210935,4.19375,
21735,118.57245707511902,291.49020248824485,4.1930000000000005,
21736,118.57265377044678,292.83992139183584,4.19475,
21737,118.57286095619202,296.39827122857565,4.1930000000000005,
21738,118.57305884361269,287.19564234045544,4.1925,
21739,118.5732717514038,289.15886983658777,4.19175,
21740,118.57346987724304,305.35549667967933,4.1922500000000005,
21741,118.57365894317628,288.0545543700133,4.19325,
21742,118.57385182380676,293.0853248288524,4.1905,
21743,118.57406091690063,345.6016603503917,4.19125,
21744,118.5742621421814,327.6872094481844,4.19475,
21745,118.5744640827179,299.4658141912824,4.1922500000000005,
21746,118.5746569633484,291.3675007697366,4.1930000000000005,
21747,118.5748701095581,292.3491145178028,4.18975,
21748,118.57507300376892,289.7723784291291,4.19375,
21749,118.57527089118958,296.6436746655922,4.18875,
21750,118.57546973228456,311.6132843236011,4.19325,
21751,118.5756537914276,288.91346639957123,4.1915,
21752,118.57585597038268,288.29995780702984,4.19075,
21753,118.57606291770936,288.91346639957123,4.1945,
21754,118.5762619972229,289.64967671062084,4.1922500000000005,
21755,118.57646894454956,290.9993956142118,4.19325,
21756,118.5766589641571,285.1097131258149,4.1945,
21757,118.5768678188324,286.09132687388103,4.19025,
21758,118.57707190513612,286.5821337479141,4.19375,
21759,118.5772716999054,292.10371108078624,4.19025,
21760,118.5774757862091,291.73560592526144,4.19275,
21761,118.57765293121338,287.56374749598024,4.196,
21762,118.57786870002748,284.74160797029003,4.1922500000000005,
21763,118.57806277275084,284.98701140730657,4.19175,
21764,118.57826209068298,285.60051999984796,4.19375,
21765,118.57847285270692,286.5821337479141,4.1915,
21766,118.5786588191986,286.70483546642237,4.19,
21767,118.57886791229248,290.9993956142118,4.19425,
21768,118.57907390594482,289.7723784291291,4.1905,
21769,118.57925796508788,297.3798849766418,4.188,
21770,118.57946872711182,297.2571832581335,4.189,
21771,118.57965397834778,306.45981214625374,4.1885,
21772,118.57986903190611,331.00015584790765,4.19,
21773,118.58007192611694,326.7055957001182,4.1895,
21774,118.5805037021637,318.2391771230476,4.1925,
21775,118.5807318687439,308.7911447979109,4.18975,
21776,118.5807318687439,298.48420044321625,4.19175,
21777,118.5808970928192,304.1284794945966,4.1895,
21778,118.5810797214508,310.8770740125514,4.18975,
21779,118.5812599658966,305.96900527222067,4.192,
21780,118.581463098526,293.3307282658689,4.18925,
21781,118.58165884017944,289.15886983658777,4.1922500000000005,
21782,118.5818808078766,286.45943202940583,4.19075,
21783,118.58207488059998,284.4962045332735,4.18975,
21784,118.58227205276488,287.19564234045544,4.19175,
21785,118.5824761390686,297.6252884136583,4.1935,
21786,118.5826609134674,287.8091509329968,4.18775,
21787,118.58287286758424,283.88269594073216,4.1915,
21788,118.58309292793274,284.8643096887983,4.19075,
21789,118.58326983451845,305.1100932426628,4.1895,
21790,118.58345293998718,295.66206091752605,4.19,
21791,118.5836570262909,285.3551165628314,4.189,
21792,118.58386993408205,285.23241484432316,4.191,
21793,118.58407187461852,286.9502389034389,4.1905,
21794,118.58428812026978,285.4778182813397,4.19175,
21795,118.5844829082489,286.70483546642237,4.1875,
21796,118.5846688747406,294.5577454509516,4.1915,
21797,118.5848789215088,296.8890781026087,4.19,
21798,118.58506083488464,297.9933935691831,4.1925,
21799,118.58526182174684,308.3003379238778,4.1935,
21800,118.5854630470276,290.2631853031622,4.18825,
21801,118.58565783500671,287.93185265150504,4.192,
21802,118.58586978912354,290.01778186614564,4.18925,
21803,118.58607006072998,301.9198485614478,4.189,
21804,118.58628797531128,300.0793227838237,4.192,
21805,118.58648777008057,300.9382348133816,4.191,
21806,118.58667087554932,294.1896402954268,4.1922500000000005,
21807,118.5868799686432,296.2755695100674,4.19025,
21808,118.58706092834473,288.91346639957123,4.18925,
21809,118.58727097511292,319.95700118216337,4.18975,
21810,118.58746600151062,271.12171721587214,4.19325,
21811,118.58767175674438,263.88231582388426,4.1915,
21812,118.58787417411804,272.83954127498794,4.1875,
21813,118.58807897567748,302.77876059100566,4.18925,
21814,118.58828592300416,318.7299839970807,4.189,
21815,118.5884838104248,312.47219635315895,4.189,
21816,118.58868193626404,313.20840666420855,4.19075,
21817,118.58886981010436,305.8463035537124,4.18925,
21818,118.58907198905943,292.5945179548193,4.18625,
21819,118.589271068573,310.6316705755349,4.19175,
21820,118.58947491645812,291.2447990512283,4.19,
21821,118.58966898918152,287.6864492144885,4.18775,
21822,118.58987498283386,289.0361681180795,4.1915,
21823,118.59008002281188,283.7599942222239,4.19175,
21824,118.59029197692873,287.44104577747197,4.19,
21825,118.59050297737122,286.2140285923893,4.1885,
21826,118.59065890312196,286.5821337479141,4.192,
21827,118.59086799621582,307.56412761282814,4.18625,
21828,118.59106373786926,320.07970290067163,4.1915,
21829,118.59127593040466,311.4905826050928,4.19025,
21830,118.59147810935974,288.91346639957123,4.191,
21831,118.59167289733888,286.70483546642237,4.19,
21832,118.59187483787537,287.93185265150504,4.18775,
21833,118.59209394454956,286.33673031089756,4.1895,
21834,118.59233593940736,289.15886983658777,4.19075,
21835,118.59247994422913,289.0361681180795,4.1875,
21836,118.59265995025636,286.33673031089756,4.1895,
21837,118.59286999702454,284.74160797029003,4.192,
21838,118.59316205978394,290.9993956142118,4.18775,
21839,118.59330105781557,294.4350437324433,4.18925,
21840,118.59347295761108,287.44104577747197,4.187,
21841,118.59367609024048,284.74160797029003,4.18825,
21842,118.59387588500977,290.38588702167044,4.19025,
21843,118.59409093856812,296.76637638410045,4.1857500000000005,
21844,118.5943009853363,308.17763620536954,4.19175,
21845,118.59446096420288,286.45943202940583,4.18875,
21846,118.59466075897215,285.3551165628314,4.1865,
21847,118.59487175941469,294.31234201393505,4.1865,
21848,118.5950779914856,294.1896402954268,4.184,
21849,118.59528398513794,314.6808272863078,4.18825,
21850,118.59547901153564,294.68044716945985,4.18725,
21851,118.59568285942078,291.61290420675317,4.19,
21852,118.59588313102722,288.42265952553817,4.19075,
21853,118.59608387947084,290.8766938957035,4.19,
21854,118.59628176689148,294.92585060647644,4.18625,
21855,118.59647583961488,320.32510633768817,4.1865,
21856,118.59667587280272,319.4661943081303,4.187,
